 # PENELOPE >>>  Positron stopping powers (stp).
 #
 #   Energy       stp_col      stp_rad      stp_tot
 #    (keV)     (eV cm**2/g) (eV cm**2/g) (eV cm**2/g)
 #----------------------------------------------------
   4.99995E-02  3.06333E+08  6.52892E+01  3.06333E+08
   5.44069E-02  2.96403E+08  7.08579E+01  2.96403E+08
   5.92029E-02  2.85944E+08  7.68024E+01  2.85944E+08
   6.44216E-02  2.75132E+08  8.31394E+01  2.75132E+08
   7.01004E-02  2.64113E+08  8.98862E+01  2.64113E+08
   7.62797E-02  2.53007E+08  9.70612E+01  2.53007E+08
   8.30037E-02  2.41912E+08  1.04684E+02  2.41912E+08
   9.03205E-02  2.30910E+08  1.12776E+02  2.30910E+08
   9.82822E-02  2.20066E+08  1.21359E+02  2.20066E+08
   1.06946E-01  2.09434E+08  1.30458E+02  2.09434E+08
   1.16373E-01  1.99056E+08  1.40101E+02  1.99056E+08
   1.26631E-01  1.88964E+08  1.50317E+02  1.88964E+08
   1.37794E-01  1.79185E+08  1.61138E+02  1.79185E+08
   1.49940E-01  1.69736E+08  1.72599E+02  1.69736E+08
   1.63157E-01  1.60631E+08  1.84740E+02  1.60631E+08
   1.77540E-01  1.81069E+08  1.97602E+02  1.81069E+08
   1.93190E-01  1.86135E+08  2.11230E+02  1.86136E+08
   2.10219E-01  1.86522E+08  2.25674E+02  1.86522E+08
   2.28750E-01  1.84464E+08  2.40986E+02  1.84464E+08
   2.48914E-01  1.80869E+08  2.57221E+02  1.80869E+08
   2.70856E-01  1.78839E+08  2.74439E+02  1.78839E+08
   2.94732E-01  1.78077E+08  2.92703E+02  1.78078E+08
   3.20712E-01  1.74585E+08  3.12079E+02  1.74585E+08
   3.48983E-01  1.69956E+08  3.32635E+02  1.69956E+08
   3.79746E-01  1.64637E+08  3.54445E+02  1.64637E+08
   4.13220E-01  1.58874E+08  3.77582E+02  1.58874E+08
   4.49645E-01  1.52832E+08  4.02124E+02  1.52832E+08
   4.89282E-01  1.46630E+08  4.28153E+02  1.46631E+08
   5.32412E-01  1.40359E+08  4.55750E+02  1.40359E+08
   5.79343E-01  1.34088E+08  4.85002E+02  1.34088E+08
   6.30412E-01  1.27869E+08  5.15998E+02  1.27870E+08
   6.85983E-01  1.21746E+08  5.48828E+02  1.21747E+08
   7.46452E-01  1.15751E+08  5.83587E+02  1.15751E+08
   8.12252E-01  1.09908E+08  6.20372E+02  1.09908E+08
   8.83852E-01  1.04236E+08  6.59283E+02  1.04237E+08
   9.61763E-01  9.87499E+07  7.00424E+02  9.87506E+07
   1.04654E+00  9.34591E+07  7.43900E+02  9.34599E+07
   1.13879E+00  8.83702E+07  7.89748E+02  8.83710E+07
   1.23918E+00  8.34868E+07  8.37923E+02  8.34876E+07
   1.34841E+00  7.88105E+07  8.88347E+02  7.88114E+07
   1.46727E+00  7.43410E+07  9.40904E+02  7.43419E+07
   1.59661E+00  7.00764E+07  9.95453E+02  7.00774E+07
   1.73735E+00  6.60137E+07  1.05195E+03  6.60147E+07
   1.89050E+00  6.21488E+07  1.11043E+03  6.21499E+07
   2.05715E+00  5.84768E+07  1.17092E+03  5.84780E+07
   2.23849E+00  5.49924E+07  1.23340E+03  5.49936E+07
   2.43581E+00  5.16896E+07  1.29782E+03  5.16909E+07
   2.65052E+00  4.85623E+07  1.36407E+03  4.85636E+07
   2.88417E+00  4.56039E+07  1.43205E+03  4.56053E+07
   3.13840E+00  4.28079E+07  1.50161E+03  4.28094E+07
   3.41505E+00  4.01676E+07  1.57268E+03  4.01691E+07
   3.71609E+00  3.80767E+07  1.64521E+03  3.80783E+07
   4.04366E+00  3.59640E+07  1.71915E+03  3.59657E+07
   4.40011E+00  3.38942E+07  1.79441E+03  3.38960E+07
   4.78798E+00  3.19058E+07  1.87083E+03  3.19077E+07
   5.21004E+00  3.00089E+07  1.94820E+03  3.00109E+07
   5.66930E+00  2.82061E+07  2.02637E+03  2.82082E+07
   6.16905E+00  2.64970E+07  2.10530E+03  2.64991E+07
   6.71284E+00  2.48798E+07  2.18490E+03  2.48820E+07
   7.30458E+00  2.33517E+07  2.26500E+03  2.33540E+07
   7.94848E+00  2.19096E+07  2.34541E+03  2.19120E+07
   8.64913E+00  2.05501E+07  2.42597E+03  2.05526E+07
   9.41155E+00  1.92697E+07  2.50666E+03  1.92722E+07
   1.02412E+01  1.80648E+07  2.58752E+03  1.80674E+07
   1.11439E+01  1.69318E+07  2.66855E+03  1.69345E+07
   1.21263E+01  1.58672E+07  2.74957E+03  1.58700E+07
   1.31952E+01  1.48675E+07  2.83037E+03  1.48703E+07
   1.43583E+01  1.39293E+07  2.91073E+03  1.39322E+07
   1.56240E+01  1.30493E+07  2.99045E+03  1.30523E+07
   1.70013E+01  1.22245E+07  3.06961E+03  1.22276E+07
   1.84999E+01  1.14517E+07  3.14860E+03  1.14549E+07
   2.01307E+01  1.07281E+07  3.22790E+03  1.07314E+07
   2.19052E+01  1.00509E+07  3.30786E+03  1.00542E+07
   2.38362E+01  9.41733E+06  3.38841E+03  9.42072E+06
   2.59373E+01  8.82494E+06  3.46937E+03  8.82841E+06
   2.82237E+01  8.27129E+06  3.55053E+03  8.27484E+06
   3.07116E+01  7.75409E+06  3.63166E+03  7.75772E+06
   3.34188E+01  7.27117E+06  3.71273E+03  7.27488E+06
   3.63646E+01  6.82044E+06  3.79428E+03  6.82424E+06
   3.95702E+01  6.39998E+06  3.87697E+03  6.40385E+06
   4.30583E+01  6.00791E+06  3.96137E+03  6.01187E+06
   4.68538E+01  5.64250E+06  4.04729E+03  5.64655E+06
   5.09840E+01  5.30210E+06  4.13415E+03  5.30623E+06
   5.54782E+01  4.98516E+06  4.22203E+03  4.98938E+06
   6.03686E+01  4.69020E+06  4.31257E+03  4.69452E+06
   6.56901E+01  4.41586E+06  4.40725E+03  4.42027E+06
   7.14806E+01  4.16084E+06  4.50622E+03  4.16535E+06
   7.77816E+01  3.92392E+06  4.60933E+03  3.92852E+06
   8.46381E+01  3.70394E+06  4.71645E+03  3.70866E+06
   9.20989E+01  3.49985E+06  4.82797E+03  3.50467E+06
   1.00217E+02  3.31062E+06  4.94472E+03  3.31556E+06
   1.09051E+02  3.13531E+06  5.06760E+03  3.14038E+06
   1.18664E+02  2.97304E+06  5.19743E+03  2.97824E+06
   1.29125E+02  2.82298E+06  5.33508E+03  2.82831E+06
   1.40507E+02  2.68434E+06  5.48151E+03  2.68982E+06
   1.52892E+02  2.55640E+06  5.63773E+03  2.56204E+06
   1.66370E+02  2.43848E+06  5.80512E+03  2.44429E+06
   1.81035E+02  2.32994E+06  5.98574E+03  2.33593E+06
   1.96994E+02  2.23018E+06  6.18190E+03  2.23637E+06
   2.14358E+02  2.13865E+06  6.39614E+03  2.14505E+06
   2.33254E+02  2.05483E+06  6.63108E+03  2.06146E+06
   2.53815E+02  1.97821E+06  6.88954E+03  1.98510E+06
   2.76189E+02  1.90836E+06  7.17466E+03  1.91553E+06
   3.00535E+02  1.84483E+06  7.48994E+03  1.85232E+06
   3.27027E+02  1.78724E+06  7.83931E+03  1.79508E+06
   3.55855E+02  1.73519E+06  8.22723E+03  1.74341E+06
   3.87223E+02  1.68833E+06  8.65873E+03  1.69699E+06
   4.21357E+02  1.64634E+06  9.13949E+03  1.65548E+06
   4.58499E+02  1.60890E+06  9.67582E+03  1.61857E+06
   4.98916E+02  1.57570E+06  1.02747E+04  1.58598E+06
   5.42895E+02  1.54648E+06  1.09441E+04  1.55743E+06
   5.90751E+02  1.52097E+06  1.16929E+04  1.53266E+06
   6.42825E+02  1.49891E+06  1.25311E+04  1.51144E+06
   6.99490E+02  1.48006E+06  1.34700E+04  1.49353E+06
   7.61150E+02  1.46421E+06  1.45217E+04  1.47873E+06
   8.28245E+02  1.45112E+06  1.57004E+04  1.46682E+06
   9.01255E+02  1.44060E+06  1.70214E+04  1.45762E+06
   9.80700E+02  1.43244E+06  1.85006E+04  1.45095E+06
   1.06715E+03  1.42647E+06  2.01562E+04  1.44662E+06
   1.16122E+03  1.42249E+06  2.20080E+04  1.44450E+06
   1.26358E+03  1.42033E+06  2.40784E+04  1.44441E+06
   1.37496E+03  1.41982E+06  2.63920E+04  1.44621E+06
   1.49616E+03  1.42081E+06  2.89760E+04  1.44978E+06
   1.62805E+03  1.42313E+06  3.18609E+04  1.45499E+06
   1.77156E+03  1.42663E+06  3.50809E+04  1.46171E+06
   1.92773E+03  1.43117E+06  3.86741E+04  1.46984E+06
   2.09765E+03  1.43660E+06  4.26828E+04  1.47929E+06
   2.28256E+03  1.44280E+06  4.71526E+04  1.48995E+06
   2.48377E+03  1.44962E+06  5.21326E+04  1.50175E+06
   2.70271E+03  1.45695E+06  5.76762E+04  1.51463E+06
   2.94096E+03  1.46468E+06  6.38414E+04  1.52853E+06
   3.20020E+03  1.47273E+06  7.06905E+04  1.54342E+06
   3.48230E+03  1.48099E+06  7.82917E+04  1.55929E+06
   3.78926E+03  1.48942E+06  8.67182E+04  1.57614E+06
   4.12328E+03  1.49796E+06  9.60484E+04  1.59401E+06
   4.48675E+03  1.50656E+06  1.06374E+05  1.61293E+06
   4.88225E+03  1.51520E+06  1.17807E+05  1.63300E+06
   5.31262E+03  1.52385E+06  1.30476E+05  1.65432E+06
   5.78093E+03  1.53249E+06  1.44498E+05  1.67699E+06
   6.29051E+03  1.54112E+06  1.59990E+05  1.70111E+06
   6.84502E+03  1.54972E+06  1.77086E+05  1.72681E+06
   7.44841E+03  1.55829E+06  1.95948E+05  1.75424E+06
   8.10498E+03  1.56683E+06  2.16756E+05  1.78359E+06
   8.81943E+03  1.57534E+06  2.39706E+05  1.81504E+06
   9.59686E+03  1.58381E+06  2.65006E+05  1.84881E+06
   1.04428E+04  1.59224E+06  2.92882E+05  1.88512E+06
   1.13634E+04  1.60064E+06  3.23579E+05  1.92421E+06
   1.23650E+04  1.60900E+06  3.57363E+05  1.96636E+06
   1.34550E+04  1.61732E+06  3.94521E+05  2.01184E+06
   1.46411E+04  1.62561E+06  4.35364E+05  2.06097E+06
   1.59317E+04  1.63386E+06  4.80230E+05  2.11409E+06
   1.73360E+04  1.64207E+06  5.29499E+05  2.17156E+06
   1.88642E+04  1.65024E+06  5.83598E+05  2.23383E+06
   2.05271E+04  1.65836E+06  6.42996E+05  2.30136E+06
   2.23365E+04  1.66644E+06  7.08197E+05  2.37464E+06
   2.43055E+04  1.67448E+06  7.79721E+05  2.45420E+06
   2.64480E+04  1.68246E+06  8.58128E+05  2.54059E+06
   2.87794E+04  1.69038E+06  9.44019E+05  2.63440E+06
   3.13163E+04  1.69824E+06  1.03804E+06  2.73628E+06
   3.40768E+04  1.70604E+06  1.14094E+06  2.84697E+06
   3.70807E+04  1.71376E+06  1.25360E+06  2.96736E+06
   4.03493E+04  1.72141E+06  1.37703E+06  3.09844E+06
   4.39061E+04  1.72898E+06  1.51227E+06  3.24125E+06
   4.77764E+04  1.73647E+06  1.66023E+06  3.39669E+06
   5.19879E+04  1.74386E+06  1.82183E+06  3.56570E+06
   5.65706E+04  1.75118E+06  1.99831E+06  3.74949E+06
   6.15573E+04  1.75840E+06  2.19139E+06  3.94979E+06
   6.69835E+04  1.76554E+06  2.40279E+06  4.16832E+06
   7.28881E+04  1.77259E+06  2.63394E+06  4.40653E+06
   7.93132E+04  1.77956E+06  2.88629E+06  4.66585E+06
   8.63046E+04  1.78645E+06  3.16139E+06  4.94783E+06
   9.39123E+04  1.79327E+06  3.46140E+06  5.25467E+06
   1.02191E+05  1.80002E+06  3.78896E+06  5.58898E+06
   1.11199E+05  1.80671E+06  4.14684E+06  5.95355E+06
   1.21001E+05  1.81335E+06  4.53773E+06  6.35107E+06
   1.31667E+05  1.81994E+06  4.96445E+06  6.78439E+06
   1.43273E+05  1.82648E+06  5.43007E+06  7.25655E+06
   1.55903E+05  1.83298E+06  5.93787E+06  7.77085E+06
   1.69646E+05  1.83945E+06  6.49148E+06  8.33093E+06
   1.84600E+05  1.84589E+06  7.09496E+06  8.94086E+06
   2.00872E+05  1.85230E+06  7.75275E+06  9.60505E+06
   2.18579E+05  1.85869E+06  8.46965E+06  1.03283E+07
   2.37847E+05  1.86506E+06  9.25088E+06  1.11159E+07
   2.58813E+05  1.87142E+06  1.01021E+07  1.19735E+07
   2.81627E+05  1.87776E+06  1.10294E+07  1.29072E+07
   3.06453E+05  1.88408E+06  1.20396E+07  1.39236E+07
   3.33466E+05  1.89040E+06  1.31398E+07  1.50302E+07
   3.62861E+05  1.89671E+06  1.43381E+07  1.62348E+07
   3.94847E+05  1.90300E+06  1.56432E+07  1.75462E+07
   4.29653E+05  1.90930E+06  1.70646E+07  1.89739E+07
   4.67527E+05  1.91558E+06  1.86133E+07  2.05289E+07
   5.08739E+05  1.92186E+06  2.03013E+07  2.22232E+07
   5.53584E+05  1.92814E+06  2.21411E+07  2.40693E+07
   6.02383E+05  1.93441E+06  2.41435E+07  2.60779E+07
   6.55483E+05  1.94068E+06  2.63203E+07  2.82610E+07
   7.13263E+05  1.94695E+06  2.86882E+07  3.06352E+07
   7.76137E+05  1.95321E+06  3.12669E+07  3.32201E+07
   8.44553E+05  1.95948E+06  3.40780E+07  3.60375E+07
   9.19000E+05  1.96574E+06  3.71423E+07  3.91080E+07
   1.00001E+06  1.97200E+06  4.04786E+07  4.24506E+07
