 # PENELOPE >>>  Positron cross sections (xs).
 #
 # NOTE: The xs for inner shell ionization (isi) is listed only for
 #       completeness. The xs for inelastic collisions (in) has been
 #       calculated by considering all inelastic events, including isi.
 #       The bremss (br) xs is for emission of photons with W >10 eV.
 #
 #   Energy        xs_el        xs_in        xs_br        xs_an       xs_tot       xs_isi
 #    (keV)       (cm**2)      (cm**2)      (cm**2)      (cm**2)      (cm**2)      (cm**2)
 #-------------------------------------------------------------------------------------------
   4.99995E-02  5.97865E-16  7.53465E-16  9.32577E-23  2.31847E-22  1.35133E-15  1.66011E-58
   5.44069E-02  5.78220E-16  7.21277E-16  9.69076E-23  2.22259E-22  1.29950E-15  1.66011E-58
   5.92029E-02  5.58921E-16  6.88565E-16  1.00413E-22  2.13068E-22  1.24749E-15  1.66011E-58
   6.44216E-02  5.39725E-16  6.55763E-16  1.03767E-22  2.04257E-22  1.19549E-15  1.66011E-58
   7.01004E-02  5.20657E-16  6.23214E-16  1.06964E-22  1.95811E-22  1.14387E-15  1.66011E-58
   7.62797E-02  5.01814E-16  5.91183E-16  1.10002E-22  1.87714E-22  1.09300E-15  1.66011E-58
   8.30037E-02  4.83204E-16  5.59877E-16  1.12877E-22  1.79952E-22  1.04308E-15  1.66011E-58
   9.03205E-02  4.64841E-16  5.29450E-16  1.15587E-22  1.72511E-22  9.94291E-16  1.66011E-58
   9.82822E-02  4.46753E-16  5.00018E-16  1.18134E-22  1.65378E-22  9.46771E-16  1.66011E-58
   1.06946E-01  4.28964E-16  4.71662E-16  1.20518E-22  1.58540E-22  9.00626E-16  1.66011E-58
   1.16373E-01  4.11498E-16  4.44437E-16  1.22743E-22  1.51985E-22  8.55935E-16  1.66011E-58
   1.26631E-01  3.94378E-16  4.18375E-16  1.24812E-22  1.45701E-22  8.12754E-16  3.12210E-20
   1.37794E-01  3.77627E-16  3.93492E-16  1.26730E-22  1.39677E-22  7.71119E-16  8.78721E-20
   1.49940E-01  3.61265E-16  3.69788E-16  1.28504E-22  1.33902E-22  7.31053E-16  1.54496E-19
   1.63157E-01  3.45312E-16  3.47252E-16  1.30140E-22  1.28367E-22  6.92565E-16  2.27168E-19
   1.77540E-01  3.29786E-16  3.33724E-16  1.31645E-22  1.23060E-22  6.63510E-16  3.05959E-19
   1.93190E-01  3.14701E-16  3.16994E-16  1.33025E-22  1.17973E-22  6.31695E-16  3.87583E-19
   2.10219E-01  3.00069E-16  2.99944E-16  1.34289E-22  1.13097E-22  6.00013E-16  4.70939E-19
   2.28750E-01  2.85901E-16  2.83162E-16  1.35444E-22  1.08422E-22  5.69062E-16  5.51737E-19
   2.48914E-01  2.72202E-16  2.66871E-16  1.36495E-22  1.03941E-22  5.39073E-16  6.30460E-19
   2.70856E-01  2.58978E-16  2.51616E-16  1.37449E-22  9.96449E-23  5.10594E-16  7.05863E-19
   2.94732E-01  2.46231E-16  2.37343E-16  1.38312E-22  9.55270E-23  4.83574E-16  7.76684E-19
   3.20712E-01  2.33960E-16  2.23369E-16  1.39089E-22  9.15795E-23  4.57329E-16  8.38848E-19
   3.48983E-01  2.22162E-16  2.09948E-16  1.39784E-22  8.77954E-23  4.32110E-16  8.94402E-19
   3.79746E-01  2.10832E-16  1.97133E-16  1.40401E-22  8.41680E-23  4.07966E-16  9.42718E-19
   4.13220E-01  1.99964E-16  1.84941E-16  1.40941E-22  8.06908E-23  3.84905E-16  9.83104E-19
   4.49645E-01  1.89549E-16  1.73373E-16  1.41408E-22  7.73576E-23  3.62922E-16  1.01509E-18
   4.89282E-01  1.79579E-16  1.62420E-16  1.41803E-22  7.41624E-23  3.41999E-16  1.03828E-18
   5.32412E-01  1.70042E-16  1.52067E-16  1.42126E-22  7.10996E-23  3.22109E-16  1.05372E-18
   5.79343E-01  1.60927E-16  1.42296E-16  1.42378E-22  6.81636E-23  3.03223E-16  1.06227E-18
   6.30412E-01  1.52222E-16  1.33086E-16  1.42560E-22  6.53492E-23  2.85309E-16  1.06334E-18
   6.85983E-01  1.43914E-16  1.24416E-16  1.42671E-22  6.26515E-23  2.68330E-16  1.05832E-18
   7.46452E-01  1.35990E-16  1.16262E-16  1.42710E-22  6.00656E-23  2.52252E-16  1.04739E-18
   8.12252E-01  1.28436E-16  1.08600E-16  1.42679E-22  5.75868E-23  2.37036E-16  1.03152E-18
   8.83852E-01  1.21239E-16  1.01406E-16  1.42575E-22  5.52108E-23  2.22645E-16  1.01112E-18
   9.61763E-01  1.14387E-16  9.46572E-17  1.42400E-22  5.29333E-23  2.09044E-16  9.87141E-19
   1.04654E+00  1.07865E-16  8.83300E-17  1.42152E-22  5.07503E-23  1.96195E-16  9.58082E-19
   1.13879E+00  1.01660E-16  8.24017E-17  1.41817E-22  4.86578E-23  1.84062E-16  9.27410E-19
   1.23918E+00  9.57600E-17  7.68505E-17  1.41369E-22  4.66522E-23  1.72611E-16  8.97720E-19
   1.34841E+00  9.01522E-17  7.16552E-17  1.40784E-22  4.47298E-23  1.61808E-16  8.63305E-19
   1.46727E+00  8.48248E-17  6.67953E-17  1.40035E-22  4.28872E-23  1.51620E-16  8.29586E-19
   1.59661E+00  7.97660E-17  6.22513E-17  1.39102E-22  4.11211E-23  1.42017E-16  7.95045E-19
   1.73735E+00  7.49645E-17  5.80045E-17  1.37987E-22  3.94285E-23  1.32969E-16  7.60115E-19
   1.89050E+00  7.04098E-17  5.40370E-17  1.36705E-22  3.78061E-23  1.24447E-16  7.24872E-19
   2.05715E+00  6.60915E-17  5.03318E-17  1.35272E-22  3.62512E-23  1.16423E-16  6.90868E-19
   2.23849E+00  6.19996E-17  4.68729E-17  1.33699E-22  3.47610E-23  1.08873E-16  6.57360E-19
   2.43581E+00  5.81247E-17  4.36450E-17  1.31986E-22  3.33329E-23  1.01770E-16  6.24162E-19
   2.65052E+00  5.44576E-17  4.06335E-17  1.30138E-22  3.19642E-23  9.50913E-17  5.91679E-19
   2.88417E+00  5.09898E-17  3.78249E-17  1.28156E-22  3.06525E-23  8.88148E-17  5.60594E-19
   3.13840E+00  4.77126E-17  3.52062E-17  1.26045E-22  2.93955E-23  8.29190E-17  5.30514E-19
   3.41505E+00  4.46181E-17  3.27652E-17  1.23816E-22  2.81910E-23  7.73834E-17  5.01513E-19
   3.71609E+00  4.16983E-17  3.04956E-17  1.21484E-22  2.70367E-23  7.21940E-17  4.73509E-19
   4.04366E+00  3.89458E-17  2.83793E-17  1.19063E-22  2.59307E-23  6.73252E-17  4.46820E-19
   4.40011E+00  3.63532E-17  2.64071E-17  1.16566E-22  2.48709E-23  6.27604E-17  4.21117E-19
   4.78798E+00  3.39134E-17  2.45700E-17  1.13998E-22  2.38555E-23  5.84835E-17  3.96598E-19
   5.21004E+00  3.16194E-17  2.28593E-17  1.11365E-22  2.28826E-23  5.44789E-17  3.73176E-19
   5.66930E+00  2.94644E-17  2.12668E-17  1.08676E-22  2.19506E-23  5.07314E-17  3.50930E-19
   6.16905E+00  2.74419E-17  1.97846E-17  1.05942E-22  2.10577E-23  4.72267E-17  3.29909E-19
   6.71284E+00  2.55455E-17  1.84054E-17  1.03178E-22  2.02023E-23  4.39510E-17  3.09870E-19
   7.30458E+00  2.37689E-17  1.71222E-17  1.00394E-22  1.93829E-23  4.08912E-17  2.90928E-19
   7.94848E+00  2.21062E-17  1.59287E-17  9.76043E-23  1.85981E-23  3.80349E-17  2.73027E-19
   8.64913E+00  2.05512E-17  1.48187E-17  9.48167E-23  1.78465E-23  3.53700E-17  2.56054E-19
   9.41155E+00  1.90985E-17  1.37867E-17  9.20203E-23  1.71266E-23  3.28852E-17  2.40065E-19
   1.02412E+01  1.77423E-17  1.28273E-17  8.91980E-23  1.64372E-23  3.05697E-17  2.24977E-19
   1.11439E+01  1.64774E-17  1.19356E-17  8.63579E-23  1.57771E-23  2.84131E-17  2.10734E-19
   1.21263E+01  1.52987E-17  1.11069E-17  8.35514E-23  1.51451E-23  2.64057E-17  1.97411E-19
   1.31952E+01  1.42010E-17  1.03370E-17  8.08320E-23  1.45400E-23  2.45381E-17  1.84855E-19
   1.43583E+01  1.31797E-17  9.62171E-18  7.82504E-23  1.39607E-23  2.28015E-17  1.73063E-19
   1.56240E+01  1.22301E-17  8.95738E-18  7.58524E-23  1.34063E-23  2.11876E-17  1.62002E-19
   1.70013E+01  1.13478E-17  8.34046E-18  7.36038E-23  1.28756E-23  1.96883E-17  1.51625E-19
   1.84999E+01  1.05286E-17  7.76765E-18  7.13885E-23  1.23678E-23  1.82963E-17  1.41901E-19
   2.01307E+01  9.76853E-18  7.23590E-18  6.90882E-23  1.18819E-23  1.70045E-17  1.32797E-19
   2.19052E+01  9.06372E-18  6.74234E-18  6.66329E-23  1.14171E-23  1.58061E-17  1.24277E-19
   2.38362E+01  8.41056E-18  6.28432E-18  6.40914E-23  1.09724E-23  1.46950E-17  1.16311E-19
   2.59373E+01  7.80562E-18  5.85934E-18  6.15553E-23  1.05470E-23  1.36650E-17  1.08872E-19
   2.82237E+01  7.24565E-18  5.46510E-18  5.91081E-23  1.01402E-23  1.27108E-17  1.01923E-19
   3.07116E+01  6.72757E-18  5.09945E-18  5.68241E-23  9.75127E-24  1.18271E-17  9.54317E-20
   3.34188E+01  6.24848E-18  4.76037E-18  5.47254E-23  9.37938E-24  1.10089E-17  8.93836E-20
   3.63646E+01  5.80567E-18  4.44600E-18  5.27540E-23  9.02387E-24  1.02517E-17  8.37415E-20
   3.95702E+01  5.39656E-18  4.15459E-18  5.08480E-23  8.68407E-24  9.55122E-18  7.84805E-20
   4.30583E+01  5.01876E-18  3.88454E-18  4.89657E-23  8.35930E-24  8.90335E-18  7.35914E-20
   4.68538E+01  4.67001E-18  3.63432E-18  4.71575E-23  8.04896E-24  8.30438E-18  6.90356E-20
   5.09840E+01  4.34820E-18  3.40255E-18  4.55012E-23  7.75241E-24  7.75080E-18  6.48012E-20
   5.54782E+01  4.05135E-18  3.18791E-18  4.40087E-23  7.46907E-24  7.23931E-18  6.08763E-20
   6.03686E+01  3.77765E-18  2.98919E-18  4.25672E-23  7.19836E-24  6.76689E-18  5.71958E-20
   6.56901E+01  3.52536E-18  2.80528E-18  4.10889E-23  6.93971E-24  6.33068E-18  5.38119E-20
   7.14806E+01  3.29289E-18  2.63511E-18  3.96026E-23  6.69259E-24  5.92804E-18  5.06475E-20
   7.77816E+01  3.07875E-18  2.47772E-18  3.81575E-23  6.45646E-24  5.55652E-18  4.77231E-20
   8.46381E+01  2.88158E-18  2.33220E-18  3.67957E-23  6.23079E-24  5.21383E-18  4.50128E-20
   9.20989E+01  2.70009E-18  2.19772E-18  3.55215E-23  6.01508E-24  4.89785E-18  4.24949E-20
   1.00217E+02  2.53307E-18  2.07349E-18  3.43170E-23  5.80881E-24  4.60660E-18  4.01638E-20
   1.09051E+02  2.37944E-18  1.95878E-18  3.31691E-23  5.61151E-24  4.33826E-18  3.80519E-20
   1.18664E+02  2.23818E-18  1.85293E-18  3.20787E-23  5.42267E-24  4.09114E-18  3.60511E-20
   1.29125E+02  2.10834E-18  1.75531E-18  3.10495E-23  5.24183E-24  3.86369E-18  3.42010E-20
   1.40507E+02  1.98904E-18  1.66534E-18  3.00846E-23  5.06851E-24  3.65442E-18  3.25149E-20
   1.52892E+02  1.87945E-18  1.58249E-18  2.91867E-23  4.90224E-24  3.46197E-18  3.09292E-20
   1.66370E+02  1.77884E-18  1.50625E-18  2.83564E-23  4.74258E-24  3.28512E-18  2.94912E-20
   1.81035E+02  1.68662E-18  1.43616E-18  2.75909E-23  4.58906E-24  3.12281E-18  2.81753E-20
   1.96994E+02  1.60198E-18  1.37180E-18  2.68871E-23  4.44125E-24  2.97380E-18  2.69542E-20
   2.14358E+02  1.52399E-18  1.31276E-18  2.62420E-23  4.29871E-24  2.83678E-18  2.58440E-20
   2.33254E+02  1.45272E-18  1.25867E-18  2.56542E-23  4.16103E-24  2.71142E-18  2.48241E-20
   2.53815E+02  1.38851E-18  1.20920E-18  2.51226E-23  4.02779E-24  2.59773E-18  2.38837E-20
   2.76189E+02  1.33091E-18  1.16401E-18  2.46463E-23  3.89861E-24  2.49495E-18  2.30351E-20
   3.00535E+02  1.27785E-18  1.12283E-18  2.42242E-23  3.77311E-24  2.40071E-18  2.22609E-20
   3.27027E+02  1.22792E-18  1.08536E-18  2.38559E-23  3.65093E-24  2.31331E-18  2.15623E-20
   3.55855E+02  1.18182E-18  1.05136E-18  2.35417E-23  3.53176E-24  2.23321E-18  2.09301E-20
   3.87223E+02  1.14014E-18  1.02059E-18  2.32825E-23  3.41527E-24  2.16075E-18  2.03610E-20
   4.21357E+02  1.10227E-18  9.92812E-19  2.30788E-23  3.30120E-24  2.09511E-18  1.98476E-20
   4.58499E+02  1.06780E-18  9.67833E-19  2.29287E-23  3.18930E-24  2.03566E-18  1.93956E-20
   4.98916E+02  1.03650E-18  9.45454E-19  2.28280E-23  3.07937E-24  1.98198E-18  1.89873E-20
   5.42895E+02  1.00814E-18  9.25493E-19  2.27732E-23  2.97123E-24  1.93366E-18  1.86327E-20
   5.90751E+02  9.82468E-19  9.07780E-19  2.27623E-23  2.86473E-24  1.89027E-18  1.83229E-20
   6.42825E+02  9.59263E-19  8.92154E-19  2.27938E-23  2.75979E-24  1.85144E-18  1.80524E-20
   6.99490E+02  9.38340E-19  8.78463E-19  2.28656E-23  2.65634E-24  1.81683E-18  1.78217E-20
   7.61150E+02  9.19511E-19  8.66564E-19  2.29752E-23  2.55435E-24  1.78610E-18  1.76308E-20
   8.28245E+02  9.02536E-19  8.56324E-19  2.31204E-23  2.45382E-24  1.75889E-18  1.74722E-20
   9.01255E+02  8.87309E-19  8.47613E-19  2.32986E-23  2.35480E-24  1.73495E-18  1.73441E-20
   9.80700E+02  8.73812E-19  8.40310E-19  2.35069E-23  2.25734E-24  1.71415E-18  1.72502E-20
   1.06715E+03  8.61701E-19  8.34299E-19  2.37425E-23  2.16153E-24  1.69603E-18  1.71820E-20
   1.16122E+03  8.50814E-19  8.29469E-19  2.40041E-23  2.06748E-24  1.68031E-18  1.71371E-20
   1.26358E+03  8.41121E-19  8.25713E-19  2.42911E-23  1.97530E-24  1.66686E-18  1.71152E-20
   1.37496E+03  8.32568E-19  8.22930E-19  2.46033E-23  1.88512E-24  1.65552E-18  1.71162E-20
   1.49616E+03  8.25031E-19  8.21019E-19  2.49402E-23  1.79706E-24  1.64608E-18  1.71382E-20
   1.62805E+03  8.18387E-19  8.19884E-19  2.53005E-23  1.71126E-24  1.63830E-18  1.71791E-20
   1.77156E+03  8.12539E-19  8.19433E-19  2.56766E-23  1.62783E-24  1.63200E-18  1.72373E-20
   1.92773E+03  8.07403E-19  8.19572E-19  2.60587E-23  1.54688E-24  1.62700E-18  1.73114E-20
   2.09765E+03  8.02905E-19  8.20212E-19  2.64373E-23  1.46850E-24  1.62315E-18  1.74012E-20
   2.28256E+03  7.98972E-19  8.21269E-19  2.68108E-23  1.39279E-24  1.62027E-18  1.75005E-20
   2.48377E+03  7.95526E-19  8.22658E-19  2.71856E-23  1.31980E-24  1.61821E-18  1.76135E-20
   2.70271E+03  7.92496E-19  8.24305E-19  2.75686E-23  1.24958E-24  1.61683E-18  1.77384E-20
   2.94096E+03  7.89832E-19  8.26140E-19  2.79674E-23  1.18216E-24  1.61600E-18  1.78729E-20
   3.20020E+03  7.87489E-19  8.28104E-19  2.83886E-23  1.11755E-24  1.61562E-18  1.80183E-20
   3.48230E+03  7.85436E-19  8.30147E-19  2.88273E-23  1.05575E-24  1.61561E-18  1.81676E-20
   3.78926E+03  7.83639E-19  8.32229E-19  2.92719E-23  9.96716E-25  1.61590E-18  1.83279E-20
   4.12328E+03  7.82043E-19  8.34321E-19  2.97103E-23  9.40429E-25  1.61639E-18  1.84923E-20
   4.48675E+03  7.80617E-19  8.36401E-19  3.01372E-23  8.86833E-25  1.61705E-18  1.86639E-20
   4.88225E+03  7.79367E-19  8.38452E-19  3.05582E-23  8.35868E-25  1.61785E-18  1.88415E-20
   5.31262E+03  7.78269E-19  8.40466E-19  3.09792E-23  7.87463E-25  1.61877E-18  1.90245E-20
   5.78093E+03  7.77302E-19  8.42437E-19  3.13985E-23  7.41540E-25  1.61977E-18  1.92107E-20
   6.29051E+03  7.76453E-19  8.44362E-19  3.18095E-23  6.98015E-25  1.62085E-18  1.94008E-20
   6.84502E+03  7.75717E-19  8.46241E-19  3.22095E-23  6.56800E-25  1.62199E-18  1.95946E-20
   7.44841E+03  7.75092E-19  8.48074E-19  3.25996E-23  6.17804E-25  1.62320E-18  1.97918E-20
   8.10498E+03  7.74567E-19  8.49863E-19  3.29808E-23  5.80934E-25  1.62446E-18  1.99917E-20
   8.81943E+03  7.74123E-19  8.51611E-19  3.33544E-23  5.46096E-25  1.62577E-18  2.01943E-20
   9.59686E+03  7.73749E-19  8.53320E-19  3.37204E-23  5.13199E-25  1.62710E-18  2.03991E-20
   1.04428E+04  7.73424E-19  8.54993E-19  3.40792E-23  4.82150E-25  1.62845E-18  2.06058E-20
   1.13634E+04  7.73141E-19  8.56632E-19  3.44306E-23  4.52860E-25  1.62981E-18  2.08144E-20
   1.23650E+04  7.72909E-19  8.58239E-19  3.47746E-23  4.25240E-25  1.63118E-18  2.10251E-20
   1.34550E+04  7.72740E-19  8.59815E-19  3.51110E-23  3.99205E-25  1.63259E-18  2.12365E-20
   1.46411E+04  7.72633E-19  8.61361E-19  3.54397E-23  3.74674E-25  1.63403E-18  2.14499E-20
   1.59317E+04  7.72583E-19  8.62878E-19  3.57609E-23  3.51566E-25  1.63550E-18  2.16639E-20
   1.73360E+04  7.72571E-19  8.64366E-19  3.60752E-23  3.29807E-25  1.63697E-18  2.18796E-20
   1.88642E+04  7.72573E-19  8.65823E-19  3.63840E-23  3.09323E-25  1.63843E-18  2.20956E-20
   2.05271E+04  7.72600E-19  8.67249E-19  3.66887E-23  2.90045E-25  1.63989E-18  2.23127E-20
   2.23365E+04  7.72659E-19  8.68642E-19  3.69899E-23  2.71907E-25  1.64134E-18  2.25298E-20
   2.43055E+04  7.72737E-19  8.69999E-19  3.72875E-23  2.54846E-25  1.64277E-18  2.27490E-20
   2.64480E+04  7.72818E-19  8.71317E-19  3.75809E-23  2.38802E-25  1.64417E-18  2.29679E-20
   2.87794E+04  7.72890E-19  8.72594E-19  3.78698E-23  2.23718E-25  1.64552E-18  2.31877E-20
   3.13163E+04  7.72948E-19  8.73824E-19  3.81537E-23  2.09541E-25  1.64681E-18  2.34080E-20
   3.40768E+04  7.72981E-19  8.75006E-19  3.84326E-23  1.96218E-25  1.64803E-18  2.36288E-20
   3.70807E+04  7.72982E-19  8.76133E-19  3.87066E-23  1.83702E-25  1.64915E-18  2.38497E-20
   4.03493E+04  7.72944E-19  8.77204E-19  3.89760E-23  1.71946E-25  1.65019E-18  2.40715E-20
   4.39061E+04  7.72867E-19  8.78213E-19  3.92403E-23  1.60907E-25  1.65112E-18  2.42931E-20
   4.77764E+04  7.72769E-19  8.79159E-19  3.94981E-23  1.50544E-25  1.65197E-18  2.45150E-20
   5.19879E+04  7.72651E-19  8.80038E-19  3.97475E-23  1.40818E-25  1.65273E-18  2.47369E-20
   5.65706E+04  7.72520E-19  8.80850E-19  3.99881E-23  1.31692E-25  1.65341E-18  2.49592E-20
   6.15573E+04  7.72397E-19  8.81594E-19  4.02213E-23  1.23131E-25  1.65403E-18  2.51824E-20
   6.69835E+04  7.72288E-19  8.82270E-19  4.04488E-23  1.15102E-25  1.65460E-18  2.54051E-20
   7.28881E+04  7.72177E-19  8.82880E-19  4.06724E-23  1.07574E-25  1.65510E-18  2.56283E-20
   7.93132E+04  7.72069E-19  8.83428E-19  4.08943E-23  1.00517E-25  1.65554E-18  2.58518E-20
   8.63046E+04  7.71987E-19  8.83915E-19  4.11164E-23  9.39039E-26  1.65594E-18  2.60750E-20
   9.39123E+04  7.71913E-19  8.84346E-19  4.13398E-23  8.77077E-26  1.65630E-18  2.62986E-20
   1.02191E+05  7.71915E-19  8.84725E-19  4.15654E-23  8.19038E-26  1.65668E-18  2.65220E-20
   1.11199E+05  7.72403E-19  8.85056E-19  4.17928E-23  7.64687E-26  1.65750E-18  2.67447E-20
   1.21001E+05  7.72981E-19  8.85345E-19  4.20198E-23  7.13801E-26  1.65837E-18  2.69693E-20
   1.31667E+05  7.73243E-19  8.85596E-19  4.22436E-23  6.66171E-26  1.65888E-18  2.71932E-20
   1.43273E+05  7.73188E-19  8.85813E-19  4.24614E-23  6.21600E-26  1.65904E-18  2.74173E-20
   1.55903E+05  7.73110E-19  8.86000E-19  4.26705E-23  5.79901E-26  1.65915E-18  2.76416E-20
   1.69646E+05  7.73122E-19  8.86160E-19  4.28682E-23  5.40899E-26  1.65932E-18  2.78658E-20
   1.84600E+05  7.73136E-19  8.86298E-19  4.30524E-23  5.04426E-26  1.65948E-18  2.80900E-20
   2.00872E+05  7.73130E-19  8.86415E-19  4.32205E-23  4.70328E-26  1.65959E-18  2.83147E-20
   2.18579E+05  7.73126E-19  8.86515E-19  4.33712E-23  4.38456E-26  1.65969E-18  2.85376E-20
   2.37847E+05  7.73128E-19  8.86601E-19  4.35059E-23  4.08672E-26  1.65977E-18  2.87624E-20
   2.58813E+05  7.73130E-19  8.86674E-19  4.36267E-23  3.80846E-26  1.65985E-18  2.89873E-20
   2.81627E+05  7.73130E-19  8.86736E-19  4.37358E-23  3.54854E-26  1.65991E-18  2.92115E-20
   3.06453E+05  7.73130E-19  8.86788E-19  4.38355E-23  3.30581E-26  1.65996E-18  2.94365E-20
   3.33466E+05  7.73129E-19  8.86833E-19  4.39279E-23  3.07918E-26  1.66001E-18  2.96607E-20
   3.62861E+05  7.73129E-19  8.86871E-19  4.40160E-23  2.86762E-26  1.66004E-18  2.98855E-20
   3.94847E+05  7.73129E-19  8.86903E-19  4.41023E-23  2.67017E-26  1.66008E-18  3.01103E-20
   4.29653E+05  7.73130E-19  8.86930E-19  4.41897E-23  2.48594E-26  1.66010E-18  3.03347E-20
   4.67527E+05  7.73130E-19  8.86953E-19  4.42818E-23  2.31406E-26  1.66013E-18  3.05594E-20
   5.08739E+05  7.73129E-19  8.86973E-19  4.43825E-23  2.15374E-26  1.66015E-18  3.07840E-20
   5.53584E+05  7.73129E-19  8.86989E-19  4.44932E-23  2.00424E-26  1.66016E-18  3.10081E-20
   6.02383E+05  7.73130E-19  8.87003E-19  4.46092E-23  1.86484E-26  1.66018E-18  3.12337E-20
   6.55483E+05  7.73129E-19  8.87015E-19  4.47268E-23  1.73490E-26  1.66019E-18  3.14578E-20
   7.13263E+05  7.73129E-19  8.87025E-19  4.48478E-23  1.61378E-26  1.66020E-18  3.16829E-20
   7.76137E+05  7.73130E-19  8.87033E-19  4.49756E-23  1.50092E-26  1.66021E-18  3.19075E-20
   8.44553E+05  7.73131E-19  8.87040E-19  4.51129E-23  1.39576E-26  1.66022E-18  3.21322E-20
   9.19000E+05  7.73131E-19  8.87046E-19  4.52578E-23  1.29780E-26  1.66022E-18  3.23571E-20
   1.00001E+06  7.73130E-19  8.87052E-19  4.54055E-23  1.20656E-26  1.66023E-18  3.25821E-20
