"061837 PM - RawData-003 - C:\Users\Ian\06132008\blocking-sampl-area-2_061426 PM.spc"
"Wavelength nm.","T%"
200.00,0.000
200.50,0.000
201.00,0.000
201.50,0.000
202.00,0.000
202.50,0.000
203.00,0.000
203.50,0.000
204.00,0.000
204.50,0.000
205.00,0.000
205.50,0.000
206.00,0.000
206.50,0.000
207.00,0.000
207.50,0.000
208.00,0.000
208.50,0.000
209.00,0.000
209.50,0.000
210.00,0.002
210.50,0.002
211.00,0.000
211.50,0.000
212.00,0.000
212.50,0.000
213.00,0.000
213.50,0.000
214.00,0.002
214.50,0.002
215.00,0.002
215.50,0.000
216.00,0.000
216.50,0.000
217.00,0.000
217.50,0.002
218.00,0.000
218.50,0.000
219.00,0.002
219.50,0.002
220.00,0.000
220.50,0.000
221.00,0.000
221.50,0.002
222.00,0.000
222.50,0.000
223.00,0.002
223.50,0.000
224.00,0.000
224.50,0.002
225.00,0.002
225.50,0.002
226.00,0.000
226.50,0.000
227.00,0.002
227.50,0.002
228.00,0.002
228.50,0.002
229.00,0.003
229.50,0.003
230.00,0.002
230.50,0.003
231.00,0.003
231.50,0.002
232.00,0.002
232.50,0.002
233.00,0.003
233.50,0.005
234.00,0.005
234.50,0.005
235.00,0.005
235.50,0.003
236.00,0.003
236.50,0.005
237.00,0.005
237.50,0.005
238.00,0.005
238.50,0.005
239.00,0.005
239.50,0.005
240.00,0.005
240.50,0.005
241.00,0.005
241.50,0.006
242.00,0.006
242.50,0.006
243.00,0.009
243.50,0.011
244.00,0.012
244.50,0.014
245.00,0.017
245.50,0.023
246.00,0.029
246.50,0.040
247.00,0.055
247.50,0.072
248.00,0.096
248.50,0.130
249.00,0.168
249.50,0.215
250.00,0.275
250.50,0.343
251.00,0.432
251.50,0.546
252.00,0.679
252.50,0.829
253.00,0.999
253.50,1.195
254.00,1.428
254.50,1.700
255.00,1.990
255.50,2.306
256.00,2.670
256.50,3.067
257.00,3.496
257.50,3.990
258.00,4.510
258.50,5.051
259.00,5.608
259.50,6.187
260.00,6.802
260.50,7.452
261.00,8.133
261.50,8.832
262.00,9.526
262.50,10.240
263.00,11.015
263.50,11.835
264.00,12.665
264.50,13.501
265.00,14.328
265.50,15.141
266.00,15.994
266.50,16.830
267.00,17.647
267.50,18.483
268.00,19.333
268.50,20.189
269.00,21.046
269.50,21.904
270.00,22.760
270.50,23.616
271.00,24.506
271.50,25.417
272.00,26.295
272.50,27.144
273.00,27.971
273.50,28.854
274.00,29.781
274.50,30.621
275.00,31.422
275.50,32.265
276.00,33.150
276.50,34.045
277.00,34.854
277.50,35.677
278.00,36.563
278.50,37.413
279.00,38.272
279.50,39.133
280.00,39.952
280.50,40.782
281.00,41.615
281.50,42.435
282.00,43.282
282.50,44.093
283.00,44.838
283.50,45.644
284.00,46.471
284.50,47.235
285.00,47.987
285.50,48.698
286.00,49.396
286.50,50.101
287.00,50.780
287.50,51.443
288.00,52.130
288.50,52.826
289.00,53.461
289.50,54.051
290.00,54.680
290.50,55.334
291.00,55.937
291.50,56.509
292.00,57.088
292.50,57.623
293.00,58.148
293.50,58.743
294.00,59.322
294.50,59.854
295.00,60.379
295.50,60.919
296.00,61.382
296.50,61.784
297.00,62.308
297.50,62.827
298.00,63.248
298.50,63.664
299.00,64.078
299.50,64.461
300.00,64.885
300.50,65.340
301.00,65.707
301.50,66.103
302.00,66.531
302.50,66.884
303.00,67.235
303.50,67.603
304.00,67.961
304.50,68.303
305.00,68.616
305.50,68.904
306.00,69.231
306.50,69.531
307.00,69.829
307.50,70.120
308.00,70.396
308.50,70.718
309.00,70.964
309.50,71.225
310.00,71.523
310.50,71.710
311.00,71.896
311.50,72.195
312.00,72.472
312.50,72.704
313.00,72.952
313.50,73.157
314.00,73.329
314.50,73.471
315.00,73.642
315.50,73.943
316.00,74.135
316.50,74.283
317.00,74.503
317.50,74.643
318.00,74.860
318.50,75.125
319.00,75.230
319.50,75.340
320.00,75.497
320.50,75.598
321.00,75.723
321.50,75.813
322.00,75.920
322.50,76.091
323.00,76.276
323.50,76.425
324.00,76.503
324.50,76.631
325.00,76.718
325.50,76.828
326.00,76.965
326.50,77.013
327.00,77.153
327.50,77.316
328.00,77.377
328.50,77.396
329.00,77.441
329.50,77.585
330.00,77.682
330.50,77.806
331.00,77.951
331.50,77.937
332.00,78.000
332.50,78.108
333.00,78.140
333.50,78.218
334.00,78.256
334.50,78.308
335.00,78.395
335.50,78.439
336.00,78.441
336.50,78.476
337.00,78.577
337.50,78.667
338.00,78.792
338.50,78.859
339.00,78.853
339.50,78.926
340.00,79.041
340.50,79.070
341.00,79.112
341.50,79.141
342.00,79.178
342.50,79.227
343.00,79.279
343.50,79.335
344.00,79.405
344.50,79.541
345.00,79.625
345.50,79.738
346.00,79.845
346.50,79.837
347.00,79.840
347.50,79.865
348.00,79.901
348.50,80.034
349.00,80.121
349.50,80.138
350.00,80.191
350.50,80.220
351.00,80.241
351.50,80.344
352.00,80.458
352.50,80.540
353.00,80.557
353.50,80.614
354.00,80.704
354.50,80.765
355.00,80.782
355.50,80.823
356.00,80.925
356.50,81.010
357.00,81.119
357.50,81.189
358.00,81.248
358.50,81.303
359.00,81.354
359.50,81.435
360.00,81.537
360.50,81.610
361.00,81.668
361.50,81.705
362.00,81.700
362.50,81.776
363.00,81.883
363.50,81.956
364.00,82.072
364.50,82.133
365.00,82.175
365.50,82.240
366.00,82.281
366.50,82.373
367.00,82.452
367.50,82.492
368.00,82.550
368.50,82.661
369.00,82.777
369.50,82.806
370.00,82.852
370.50,82.927
371.00,82.999
371.50,83.089
372.00,83.183
372.50,83.266
373.00,83.319
373.50,83.383
374.00,83.443
374.50,83.496
375.00,83.569
375.50,83.592
376.00,83.601
376.50,83.739
377.00,83.846
377.50,83.928
378.00,84.021
378.50,84.082
379.00,84.151
379.50,84.198
380.00,84.282
380.50,84.364
381.00,84.430
381.50,84.473
382.00,84.473
382.50,84.549
383.00,84.615
383.50,84.669
384.00,84.796
384.50,84.840
385.00,84.859
385.50,84.958
386.00,85.040
386.50,85.129
387.00,85.274
387.50,85.333
388.00,85.339
388.50,85.373
389.00,85.434
389.50,85.504
390.00,85.603
390.50,85.683
391.00,85.696
391.50,85.745
392.00,85.779
392.50,85.844
393.00,85.938
393.50,86.008
394.00,86.116
394.50,86.183
395.00,86.218
395.50,86.278
396.00,86.305
396.50,86.348
397.00,86.409
397.50,86.443
398.00,86.469
398.50,86.530
399.00,86.641
399.50,86.722
400.00,86.800
400.50,86.856
401.00,86.893
401.50,86.946
402.00,86.972
402.50,87.007
403.00,87.059
403.50,87.128
404.00,87.198
404.50,87.219
405.00,87.213
405.50,87.270
406.00,87.334
406.50,87.363
407.00,87.411
407.50,87.431
408.00,87.462
408.50,87.521
409.00,87.555
409.50,87.613
410.00,87.666
410.50,87.662
411.00,87.660
411.50,87.720
412.00,87.759
412.50,87.807
413.00,87.880
413.50,87.926
414.00,87.930
414.50,87.965
415.00,88.008
415.50,88.000
416.00,88.039
416.50,88.034
417.00,88.014
417.50,88.045
418.00,88.058
418.50,88.121
419.00,88.138
419.50,88.124
420.00,88.139
420.50,88.150
421.00,88.185
421.50,88.205
422.00,88.222
422.50,88.220
423.00,88.222
423.50,88.255
424.00,88.266
424.50,88.251
425.00,88.254
425.50,88.234
426.00,88.222
426.50,88.240
427.00,88.258
427.50,88.268
428.00,88.264
428.50,88.283
429.00,88.321
429.50,88.358
430.00,88.371
430.50,88.359
431.00,88.351
431.50,88.354
432.00,88.367
432.50,88.391
433.00,88.387
433.50,88.382
434.00,88.397
434.50,88.377
435.00,88.344
435.50,88.307
436.00,88.322
436.50,88.335
437.00,88.306
437.50,88.286
438.00,88.287
438.50,88.293
439.00,88.274
439.50,88.268
440.00,88.275
440.50,88.268
441.00,88.245
441.50,88.208
442.00,88.171
442.50,88.170
443.00,88.187
443.50,88.202
444.00,88.158
444.50,88.120
445.00,88.106
445.50,88.106
446.00,88.094
446.50,88.055
447.00,88.026
447.50,88.008
448.00,87.962
448.50,87.900
449.00,87.900
449.50,87.926
450.00,87.924
450.50,87.898
451.00,87.892
451.50,87.866
452.00,87.822
452.50,87.828
453.00,87.845
453.50,87.804
454.00,87.744
454.50,87.732
455.00,87.723
455.50,87.697
456.00,87.683
456.50,87.674
457.00,87.630
457.50,87.604
458.00,87.587
458.50,87.561
459.00,87.567
459.50,87.543
460.00,87.514
460.50,87.466
461.00,87.418
461.50,87.404
462.00,87.369
462.50,87.350
463.00,87.326
463.50,87.292
464.00,87.292
464.50,87.270
465.00,87.245
465.50,87.228
466.00,87.180
466.50,87.125
467.00,87.082
467.50,87.062
468.00,87.045
468.50,87.021
469.00,87.000
469.50,86.984
470.00,86.943
470.50,86.919
471.00,86.914
471.50,86.862
472.00,86.812
472.50,86.765
473.00,86.748
473.50,86.743
474.00,86.716
474.50,86.687
475.00,86.655
475.50,86.609
476.00,86.572
476.50,86.534
477.00,86.497
477.50,86.470
478.00,86.449
478.50,86.426
479.00,86.377
479.50,86.342
480.00,86.328
480.50,86.313
481.00,86.279
481.50,86.256
482.00,86.221
482.50,86.185
483.00,86.197
483.50,86.162
484.00,86.095
484.50,86.035
485.00,85.982
485.50,85.956
486.00,85.963
486.50,85.938
487.00,85.901
487.50,85.890
488.00,85.857
488.50,85.809
489.00,85.797
489.50,85.800
490.00,85.727
490.50,85.667
491.00,85.605
491.50,85.561
492.00,85.567
492.50,85.539
493.00,85.544
493.50,85.551
494.00,85.490
494.50,85.451
495.00,85.422
495.50,85.382
496.00,85.344
496.50,85.321
497.00,85.323
497.50,85.295
498.00,85.262
498.50,85.222
499.00,85.162
499.50,85.118
500.00,85.118
500.50,85.104
501.00,85.085
501.50,85.068
502.00,85.033
502.50,85.011
503.00,84.959
503.50,84.903
504.00,84.888
504.50,84.875
505.00,84.831
505.50,84.804
506.00,84.799
506.50,84.766
507.00,84.743
507.50,84.729
508.00,84.718
508.50,84.686
509.00,84.654
509.50,84.634
510.00,84.622
510.50,84.610
511.00,84.592
511.50,84.570
512.00,84.541
512.50,84.540
513.00,84.532
513.50,84.512
514.00,84.473
514.50,84.427
515.00,84.416
515.50,84.393
516.00,84.390
516.50,84.381
517.00,84.351
517.50,84.337
518.00,84.334
518.50,84.354
519.00,84.299
519.50,84.248
520.00,84.229
520.50,84.227
521.00,84.241
521.50,84.225
522.00,84.215
522.50,84.183
523.00,84.175
523.50,84.174
524.00,84.131
524.50,84.154
525.00,84.154
525.50,84.099
526.00,84.079
526.50,84.055
527.00,84.053
527.50,84.027
528.00,84.007
528.50,83.987
529.00,83.954
529.50,83.986
530.00,84.004
530.50,83.981
531.00,83.936
531.50,83.887
532.00,83.876
532.50,83.882
533.00,83.891
533.50,83.891
534.00,83.867
534.50,83.849
535.00,83.838
535.50,83.820
536.00,83.817
536.50,83.826
537.00,83.813
537.50,83.812
538.00,83.810
538.50,83.778
539.00,83.731
539.50,83.710
540.00,83.737
540.50,83.784
541.00,83.786
541.50,83.766
542.00,83.743
542.50,83.723
543.00,83.720
543.50,83.705
544.00,83.687
544.50,83.662
545.00,83.652
545.50,83.669
546.00,83.659
546.50,83.635
547.00,83.632
547.50,83.621
548.00,83.603
548.50,83.607
549.00,83.609
549.50,83.597
550.00,83.589
550.50,83.609
551.00,83.603
551.50,83.569
552.00,83.585
552.50,83.617
553.00,83.609
553.50,83.600
554.00,83.600
554.50,83.595
555.00,83.557
555.50,83.539
556.00,83.566
556.50,83.559
557.00,83.549
557.50,83.545
558.00,83.537
558.50,83.539
559.00,83.533
559.50,83.553
560.00,83.565
560.50,83.553
561.00,83.569
561.50,83.582
562.00,83.574
562.50,83.551
563.00,83.527
563.50,83.527
564.00,83.540
564.50,83.563
565.00,83.577
565.50,83.559
566.00,83.559
566.50,83.553
567.00,83.536
567.50,83.548
568.00,83.575
568.50,83.589
569.00,83.575
569.50,83.537
570.00,83.549
570.50,83.585
571.00,83.580
571.50,83.582
572.00,83.591
572.50,83.589
573.00,83.586
573.50,83.598
574.00,83.606
574.50,83.629
575.00,83.626
575.50,83.615
576.00,83.612
576.50,83.607
577.00,83.621
577.50,83.629
578.00,83.652
578.50,83.665
579.00,83.653
579.50,83.652
580.00,83.670
580.50,83.682
581.00,83.682
581.50,83.679
582.00,83.688
582.50,83.693
583.00,83.682
583.50,83.698
584.00,83.723
584.50,83.714
585.00,83.713
585.50,83.736
586.00,83.749
586.50,83.745
587.00,83.772
587.50,83.810
588.00,83.768
588.50,83.749
589.00,83.772
589.50,83.771
590.00,83.801
590.50,83.815
591.00,83.836
591.50,83.818
592.00,83.803
592.50,83.806
593.00,83.807
593.50,83.855
594.00,83.850
594.50,83.844
595.00,83.847
595.50,83.859
596.00,83.870
596.50,83.902
597.00,83.946
597.50,83.936
598.00,83.942
598.50,83.949
599.00,83.965
599.50,83.977
600.00,83.981
600.50,83.983
601.00,83.986
601.50,84.000
602.00,84.004
602.50,84.029
603.00,84.070
603.50,84.090
604.00,84.087
604.50,84.084
605.00,84.081
605.50,84.105
606.00,84.116
606.50,84.116
607.00,84.105
607.50,84.097
608.00,84.119
608.50,84.157
609.00,84.209
609.50,84.251
610.00,84.230
610.50,84.212
611.00,84.241
611.50,84.256
612.00,84.253
612.50,84.247
613.00,84.273
613.50,84.317
614.00,84.344
614.50,84.375
615.00,84.404
615.50,84.402
616.00,84.399
616.50,84.401
617.00,84.404
617.50,84.427
618.00,84.456
618.50,84.450
619.00,84.473
619.50,84.497
620.00,84.489
620.50,84.506
621.00,84.514
621.50,84.514
622.00,84.529
622.50,84.535
623.00,84.541
623.50,84.569
624.00,84.583
624.50,84.618
625.00,84.633
625.50,84.627
626.00,84.653
626.50,84.677
627.00,84.695
627.50,84.688
628.00,84.714
628.50,84.737
629.00,84.752
629.50,84.781
630.00,84.781
630.50,84.776
631.00,84.790
631.50,84.805
632.00,84.827
632.50,84.850
633.00,84.877
633.50,84.894
634.00,84.888
634.50,84.917
635.00,84.935
635.50,84.943
636.00,84.961
636.50,84.973
637.00,85.002
637.50,85.008
638.00,85.023
638.50,85.020
639.00,85.039
639.50,85.098
640.00,85.085
640.50,85.086
641.00,85.127
641.50,85.162
642.00,85.170
642.50,85.168
643.00,85.184
643.50,85.184
644.00,85.199
644.50,85.208
645.00,85.231
645.50,85.280
646.00,85.281
646.50,85.278
647.00,85.284
647.50,85.323
648.00,85.373
648.50,85.387
649.00,85.374
649.50,85.378
650.00,85.406
650.50,85.434
651.00,85.451
651.50,85.454
652.00,85.461
652.50,85.489
653.00,85.527
653.50,85.550
654.00,85.561
654.50,85.580
655.00,85.591
655.50,85.585
656.00,85.577
656.50,85.606
657.00,85.634
657.50,85.635
658.00,85.674
658.50,85.698
659.00,85.721
659.50,85.760
660.00,85.771
660.50,85.770
661.00,85.776
661.50,85.786
662.00,85.780
662.50,85.791
663.00,85.814
663.50,85.840
664.00,85.866
664.50,85.880
665.00,85.916
665.50,85.918
666.00,85.910
666.50,85.918
667.00,85.939
667.50,85.977
668.00,85.980
668.50,85.983
669.00,86.008
669.50,86.028
670.00,86.064
670.50,86.092
671.00,86.107
671.50,86.110
672.00,86.130
672.50,86.162
673.00,86.177
673.50,86.212
674.00,86.230
674.50,86.224
675.00,86.235
675.50,86.246
676.00,86.296
676.50,86.324
677.00,86.328
677.50,86.366
678.00,86.372
678.50,86.371
679.00,86.383
679.50,86.389
680.00,86.378
680.50,86.420
681.00,86.455
681.50,86.478
682.00,86.523
682.50,86.517
683.00,86.505
683.50,86.539
684.00,86.574
684.50,86.560
685.00,86.581
685.50,86.603
686.00,86.583
686.50,86.586
687.00,86.613
687.50,86.620
688.00,86.603
688.50,86.633
689.00,86.623
689.50,86.641
690.00,86.676
690.50,86.679
691.00,86.711
691.50,86.739
692.00,86.751
692.50,86.771
693.00,86.801
693.50,86.807
694.00,86.824
694.50,86.832
695.00,86.845
695.50,86.871
696.00,86.874
696.50,86.899
697.00,86.899
697.50,86.906
698.00,86.940
698.50,86.958
699.00,86.981
699.50,87.012
700.00,87.012
700.50,86.992
701.00,86.989
701.50,87.012
702.00,87.019
702.50,87.000
703.00,87.039
703.50,87.071
704.00,87.065
704.50,87.079
705.00,87.163
705.50,87.193
706.00,87.190
706.50,87.225
707.00,87.213
707.50,87.196
708.00,87.218
708.50,87.265
709.00,87.274
709.50,87.282
710.00,87.335
710.50,87.347
711.00,87.349
711.50,87.344
712.00,87.347
712.50,87.387
713.00,87.416
713.50,87.436
714.00,87.425
714.50,87.415
715.00,87.419
715.50,87.416
716.00,87.419
716.50,87.431
717.00,87.430
717.50,87.448
718.00,87.486
718.50,87.529
719.00,87.521
719.50,87.512
720.00,87.541
720.50,87.544
721.00,87.575
721.50,87.593
722.00,87.602
722.50,87.605
723.00,87.607
723.50,87.645
724.00,87.654
724.50,87.640
725.00,87.645
725.50,87.675
726.00,87.688
726.50,87.691
727.00,87.692
727.50,87.680
728.00,87.689
728.50,87.717
729.00,87.732
729.50,87.733
730.00,87.772
730.50,87.805
731.00,87.810
731.50,87.825
732.00,87.813
732.50,87.816
733.00,87.827
733.50,87.837
734.00,87.898
734.50,87.933
735.00,87.941
735.50,87.932
736.00,87.910
736.50,87.935
737.00,87.958
737.50,87.961
738.00,87.938
738.50,87.979
739.00,88.046
739.50,88.034
740.00,88.022
740.50,88.034
741.00,88.028
741.50,88.029
742.00,88.048
742.50,88.086
743.00,88.109
743.50,88.104
744.00,88.086
744.50,88.071
745.00,88.066
745.50,88.046
746.00,88.081
746.50,88.078
747.00,88.086
747.50,88.127
748.00,88.177
748.50,88.208
749.00,88.196
749.50,88.187
750.00,88.168
750.50,88.194
751.00,88.213
751.50,88.248
752.00,88.269
752.50,88.257
753.00,88.252
753.50,88.251
754.00,88.292
754.50,88.303
755.00,88.281
755.50,88.286
756.00,88.286
756.50,88.287
757.00,88.327
757.50,88.359
758.00,88.356
758.50,88.396
759.00,88.373
759.50,88.321
760.00,88.304
760.50,88.306
761.00,88.327
761.50,88.376
762.00,88.414
762.50,88.406
763.00,88.455
763.50,88.466
764.00,88.455
764.50,88.463
765.00,88.440
765.50,88.425
766.00,88.440
766.50,88.478
767.00,88.489
767.50,88.486
768.00,88.486
768.50,88.460
769.00,88.432
769.50,88.449
770.00,88.493
770.50,88.504
771.00,88.513
771.50,88.539
772.00,88.521
772.50,88.527
773.00,88.570
773.50,88.583
774.00,88.586
774.50,88.570
775.00,88.547
775.50,88.576
776.00,88.580
776.50,88.585
777.00,88.628
777.50,88.647
778.00,88.602
778.50,88.596
779.00,88.631
779.50,88.660
780.00,88.690
780.50,88.695
781.00,88.716
781.50,88.680
782.00,88.641
782.50,88.661
783.00,88.669
783.50,88.675
784.00,88.684
784.50,88.719
785.00,88.727
785.50,88.730
786.00,88.718
786.50,88.721
787.00,88.725
787.50,88.748
788.00,88.762
788.50,88.751
789.00,88.782
789.50,88.779
790.00,88.754
790.50,88.733
791.00,88.747
791.50,88.791
792.00,88.782
792.50,88.762
793.00,88.771
793.50,88.760
794.00,88.765
794.50,88.783
795.00,88.820
795.50,88.788
796.00,88.765
796.50,88.823
797.00,88.808
797.50,88.795
798.00,88.823
798.50,88.838
799.00,88.835
799.50,88.805
800.00,88.828
800.50,88.858
801.00,88.866
801.50,88.916
802.00,88.913
802.50,88.875
803.00,88.875
803.50,88.843
804.00,88.863
804.50,88.882
805.00,88.873
805.50,88.907
806.00,88.904
806.50,88.885
807.00,88.911
807.50,88.942
808.00,88.911
808.50,88.884
809.00,88.890
809.50,88.902
810.00,88.896
810.50,88.898
811.00,88.928
811.50,88.945
812.00,88.950
812.50,88.943
813.00,88.890
813.50,88.838
814.00,88.818
814.50,88.792
815.00,88.821
815.50,88.901
816.00,88.922
816.50,88.927
817.00,88.968
817.50,88.954
818.00,88.931
818.50,88.959
819.00,88.913
819.50,88.892
820.00,88.950
820.50,88.940
821.00,88.951
821.50,89.000
822.00,88.985
822.50,88.947
823.00,88.963
823.50,88.972
824.00,88.971
824.50,88.956
825.00,88.931
825.50,88.956
826.00,88.965
826.50,88.991
827.00,89.050
827.50,89.056
828.00,89.001
828.50,88.962
829.00,88.997
829.50,88.997
830.00,88.974
830.50,88.989
831.00,89.000
831.50,89.026
832.00,89.021
832.50,88.959
833.00,88.913
833.50,88.936
834.00,89.021
834.50,89.052
835.00,89.029
835.50,89.035
836.00,88.997
836.50,88.916
837.00,88.907
837.50,88.948
838.00,88.943
838.50,89.021
839.00,89.095
839.50,89.020
840.00,88.982
840.50,88.989
841.00,89.009
841.50,89.049
842.00,89.066
842.50,89.058
843.00,89.058
843.50,89.075
844.00,89.035
844.50,89.001
845.00,89.003
845.50,89.011
846.00,89.044
846.50,89.034
847.00,88.976
847.50,88.994
848.00,89.047
848.50,89.003
849.00,88.994
849.50,89.029
850.00,89.037
850.50,89.046
851.00,89.021
851.50,89.012
852.00,88.998
852.50,89.038
853.00,89.072
853.50,89.044
854.00,89.018
854.50,88.948
855.00,88.940
855.50,88.986
856.00,88.959
856.50,88.988
857.00,89.001
857.50,88.979
858.00,89.012
858.50,89.053
859.00,89.041
859.50,89.024
860.00,89.023
860.50,88.988
861.00,89.034
861.50,89.063
862.00,89.046
862.50,89.044
863.00,89.064
863.50,89.041
864.00,89.053
864.50,89.072
865.00,89.001
865.50,88.957
866.00,88.934
866.50,88.997
867.00,89.082
867.50,89.113
868.00,89.055
868.50,88.947
869.00,88.950
869.50,89.009
870.00,89.024
870.50,89.052
871.00,89.009
871.50,88.950
872.00,88.936
872.50,88.911
873.00,88.896
873.50,88.899
874.00,88.965
874.50,89.005
875.00,89.070
875.50,89.066
876.00,89.059
876.50,89.037
877.00,88.846
877.50,88.753
878.00,88.835
878.50,88.867
879.00,88.853
879.50,88.803
880.00,88.867
880.50,88.841
881.00,88.727
881.50,88.902
882.00,89.032
882.50,88.966
883.00,88.922
883.50,88.901
884.00,88.890
884.50,88.933
885.00,89.023
885.50,88.911
886.00,88.751
886.50,88.722
887.00,88.799
887.50,88.997
888.00,89.102
888.50,89.241
889.00,89.243
889.50,89.101
890.00,89.063
890.50,88.972
891.00,88.831
891.50,88.832
892.00,88.934
892.50,88.963
893.00,88.934
893.50,89.108
894.00,89.206
894.50,89.041
895.00,89.064
895.50,89.293
896.00,89.151
896.50,89.084
897.00,88.927
897.50,88.974
898.00,89.406
898.50,89.093
899.00,89.020
899.50,89.145
900.00,88.911
900.50,88.718
901.00,88.686
901.50,88.602
902.00,88.528
902.50,88.589
903.00,88.341
903.50,88.635
904.00,89.105
904.50,89.049
905.00,89.288
905.50,89.494
906.00,89.362
906.50,88.953
907.00,88.567
907.50,88.675
908.00,88.670
908.50,88.457
909.00,88.223
909.50,88.553
910.00,89.072
910.50,88.985
911.00,89.151
911.50,89.182
912.00,89.259
912.50,89.458
913.00,89.146
913.50,88.858
914.00,88.950
914.50,89.090
915.00,89.273
915.50,89.088
916.00,88.821
916.50,88.628
917.00,88.362
917.50,88.687
918.00,88.615
918.50,88.390
919.00,88.992
919.50,88.896
920.00,88.313
920.50,88.260
921.00,87.668
921.50,87.405
922.00,87.660
922.50,88.202
923.00,88.982
923.50,89.401
924.00,89.485
924.50,88.843
925.00,88.347
925.50,88.475
926.00,88.638
926.50,88.702
927.00,88.277
927.50,87.866
928.00,87.907
928.50,87.840
929.00,88.275
929.50,88.586
930.00,88.272
930.50,87.769
931.00,88.310
931.50,88.972
932.00,88.609
932.50,88.742
933.00,88.538
933.50,87.909
934.00,88.843
934.50,89.859
935.00,88.976
935.50,88.049
936.00,88.338
936.50,88.582
937.00,88.246
937.50,87.675
938.00,87.222
938.50,87.589
939.00,86.833
939.50,85.321
940.00,85.999
940.50,87.306
941.00,87.653
941.50,87.576
942.00,87.894
942.50,89.917
943.00,90.324
943.50,90.094
944.00,91.028
944.50,89.240
945.00,88.043
945.50,88.091
946.00,87.503
946.50,88.522
947.00,89.203
947.50,88.347
948.00,87.306
948.50,86.963
949.00,87.407
949.50,88.931
950.00,90.529
